<xrdMeasurements xmlns="http://www.xrdml.com/XRDMeasurement/2.1" xmlns:xsi="http://www.w3.org/2001/XMLSchema-instance" xsi:schemaLocation="http://www.xrdml.com/XRDMeasurement/2.1 http://www.xrdml.com/XRDMeasurement/2.1/XRDMeasurement.xsd" status="Completed">
	<comment>
		<entry>Configuration=HT Transmission Default pixcel 1, Owner=User-1, Creation date=12/12/2019 14:35:54</entry>
		<entry>Goniometer=PW3050/60 (Theta/Theta); Minimum step size 2Theta:0.001; Minimum step size Omega:0.001</entry>
		<entry>Sample stage=High-throughput stage; Minimum step size X:0.01; Minimum step size Y:0.01; Minimum step size Z:0.001</entry>
		<entry>Diffractometer system=XPERT-PRO</entry>
		<entry>Measurement program=C:\PANalytical\Data Collector\Programs\SYC_HTtrans_4-40_60min.xrdmp, Identifier={227dca38-f558-4348-af64-5d3b87566e30}</entry>
		<entry>Fine Calibration Offset for 2Theta = -0.144 deg</entry>
		<entry>Fine Calibration Offset for Omega = 0.005 deg</entry>
		<entry>Batch program=C:\PANalytical\Data Collector\Programs\SYC_HTTrans_4-40_60min_batch.xrdmp, Identifier={49c843b7-2842-4ce5-a8ec-e632c51949cb}</entry>
	</comment>
	<sample type="To be analyzed">
		<id>10102023 LLTest_B4_PB8_SYC_HTTrans_4-40_60min_batch</id>
		<name>10102023 LLTest_PB8_SYC_HTTrans_4-40_60min_batch</name>
		<preparedBy></preparedBy>
	</sample>
	<xrdMeasurement measurementType="Scan" status="Completed" sampleMode="Transmission">
		<comment>
			<entry>PHD Lower Level = 4.02 (keV), PHD Upper Level = 12.87 (keV)</entry>
		</comment>
		<usedWavelength intended="K-Alpha">
			<kAlpha1 unit="Angstrom">1.5405980</kAlpha1>
			<kAlpha2 unit="Angstrom">1.5444260</kAlpha2>
			<kBeta unit="Angstrom">1.3922500</kBeta>
			<ratioKAlpha2KAlpha1>0.5000</ratioKAlpha2KAlpha1>
		</usedWavelength>
		<incidentBeamPath>
			<radius unit="mm">240.00</radius>
			<xRayTube id="1010048" name="Empyrean Cu LFF HR (9430 033 7310x) DK434001">
				<tension unit="kV">40.0</tension>
				<current unit="mA">40.0</current>
				<anodeMaterial>Cu</anodeMaterial>
				<focus type="Line">
					<length unit="mm">12.0</length>
					<width unit="mm">0.4</width>
					<takeOffAngle unit="deg">4.4</takeOffAngle>
				</focus>
			</xRayTube>
			<xRayMirror id="27030001" name="Focusing X-ray mirror for Cu radiation" hybrid="false">
				<crystal type="Graded" shape="Elliptic">W/Si</crystal>
				<acceptanceAngle unit="deg">0.800</acceptanceAngle>
				<length unit="mm">55.3</length>
			</xRayMirror>
			<sollerSlit id="21010002" name="Soller slits 0.04 rad.">
				<opening unit="rad">0.0400</opening>
			</sollerSlit>
			<mask id="22030008" name="Fixed mask 4 mm">
				<distanceToSample unit="mm">171.30</distanceToSample>
				<width unit="mm">4.00</width>
			</mask>
			<divergenceSlit id="22010004" name="Fixed slit 1/2°" xsi:type="fixedDivergenceSlitType">
				<distanceToSample unit="mm">179.60</distanceToSample>
				<height unit="mm">0.76</height>
			</divergenceSlit>
		</incidentBeamPath>
		<sampleOffset>
			<position axis="2Theta" unit="deg">0.000</position>
			<position axis="Omega" unit="deg">0.000</position>
		</sampleOffset>
		<diffractedBeamPath>
			<radius unit="mm">240.00</radius>
			<sollerSlit id="21010002" name="Soller slits 0.04 rad.">
				<opening unit="rad">0.0400</opening>
			</sollerSlit>
			<detector id="7010015" name="PIXcel1D detector" xsi:type="rtmsDetectorType">
				<phd unit="%">
					<lowerLevel>25.0</lowerLevel>
					<upperLevel>80.0</upperLevel>
				</phd>
				<mode>Scanning</mode>
				<activeLength unit="deg">3.348</activeLength>
			</detector>
		</diffractedBeamPath>
		<scan appendNumber="0" mode="Continuous" scanAxis="Gonio" status="Completed">
			<header>
				<startTimeStamp>2023-10-11T23:18:26+02:00</startTimeStamp>
				<endTimeStamp>2023-10-12T00:18:27+02:00</endTimeStamp>
				<author>
					<name>User</name>
				</author>
				<source>
					<applicationSoftware version="6.1b">Data Collector</applicationSoftware>
					<instrumentControlSoftware version="2.2F 20161117">XPERT-PRO</instrumentControlSoftware>
					<instrumentID>0000000011019961</instrumentID>
				</source>
			</header>
			<dataPoints>
				<positions axis="2Theta" unit="deg">
					<startPosition>4.00356514</startPosition>
					<endPosition>39.99366996</endPosition>
				</positions>
				<positions axis="Omega" unit="deg">
					<startPosition>2.00178257</startPosition>
					<endPosition>19.99683498</endPosition>
				</positions>
				<positions axis="X" unit="mm">
					<commonPosition>17.49</commonPosition>
				</positions>
				<positions axis="Y" unit="mm">
					<commonPosition>47.00</commonPosition>
				</positions>
				<positions axis="Z" unit="mm">
					<commonPosition>4.000</commonPosition>
				</positions>
				<commonCountingTime unit="seconds">304.470</commonCountingTime>
				<counts unit="counts">14336 14371 14452 14353 14611 14630 14472 14450 14362 14466 14261 14370 14395 14434 14464 14287 14409 14424 14643 14339 14498 14559 14565 14684 14577 14465 14366 14438 14383 14691 14558 14554 14735 14692 14406 14456 14680 14575 14641 14581 14920 14613 14797 14734 14905 14759 14839 15084 15341 14938 15186 15250 15496 15477 15551 15430 15247 15443 15398 15690 15836 15547 15864 15778 15843 16176 16122 16294 16528 16431 16414 16754 16925 16764 16731 16917 17011 17494 17601 17624 17783 17901 17918 18071 18359 18027 18557 19008 18836 18898 19432 19262 19489 19756 19856 19942 20364 20073 20397 20723 20692 20790 21077 21002 21593 21208 21812 21584 21489 21651 21783 21760 21990 21796 21852 21722 21832 21797 22115 21841 21382 21081 21151 21119 21095 20920 20876 20554 20113 20186 19672 19624 19400 19105 18964 18660 18434 18307 17842 17771 17584 17173 17185 16688 16530 16540 16123 16053 15754 15653 15418 15304 15431 15109 15228 14829 14793 14658 14646 14280 14164 14266 14065 14250 13975 13985 13985 13732 13799 13738 13564 13619 13468 13426 13400 13192 13388 13220 12940 13150 13020 12835 12991 13079 12934 12708 12536 12630 12801 12730 12760 12324 12453 12418 12791 12300 12381 12109 12203 12002 12024 12137 12110 11917 11816 11917 11847 11560 11542 11655 11474 11373 11636 11393 11464 11355 11350 11200 11179 11158 11060 10926 10957 11040 10908 10934 10792 10777 10763 10738 10742 10862 10797 10514 10610 10363 10442 10528 10199 10414 10303 10422 10128 10253 10249 10198 9944 10061 10008 9967 9747 9849 9669 9797 9558 9485 9426 9670 9637 9533 9350 9539 9494 9318 9354 9517 9284 9402 9260 9213 9236 9079 9101 9000 9017 8919 9032 8901 8977 8810 8936 8886 8760 8785 8589 8554 8620 8467 8743 8726 8642 8533 8497 8476 8537 8464 8412 8428 8246 8356 8126 8367 8149 8198 8158 7976 8105 7950 7997 8120 8049 8031 7866 7960 8019 7852 7893 7940 7834 7724 7581 7773 7910 7690 7538 7543 7554 7597 7691 7425 7615 7602 7528 7439 7668 7455 7489 7208 7421 7432 7310 7412 7240 7201 7346 7247 7301 7223 7291 7228 7178 7151 7221 7132 7074 7002 7092 7015 7037 6851 7015 7029 6928 6980 7013 6930 6955 6906 6986 6975 6970 6807 7052 6896 6770 6813 6841 6943 6824 6838 6810 6733 6759 6831 6769 6809 6823 6781 6518 6604 6569 6577 6794 6673 6593 6683 6597 6793 6515 6653 6490 6513 6563 6505 6350 6503 6514 6551 6549 6476 6379 6585 6477 6427 6312 6443 6351 6509 6393 6371 6596 6392 6563 6476 6553 6528 6343 6411 6464 6460 6369 6397 6203 6405 6392 6517 6292 6361 6498 6459 6349 6274 6462 6311 6308 6343 6283 6416 6398 6310 6419 6469 6237 6312 6349 6366 6368 6413 6305 6458 6355 6383 6327 6327 6405 6305 6368 6423 6337 6349 6229 6239 6379 6302 6408 6536 6445 6435 6505 6507 6268 6393 6389 6663 6398 6433 6542 6413 6499 6424 6502 6533 6514 6564 6529 6486 6621 6643 6606 6682 6646 6786 6505 6672 6640 6742 6631 6578 6762 6786 6773 6880 6806 6810 6828 6718 6916 6860 6708 6878 6848 6857 6793 6907 6798 7172 6950 6749 6826 6868 6991 6796 6903 6897 7057 6945 6800 6954 6878 6790 7033 6800 6706 6816 6865 6806 6797 6904 6740 6881 6846 6716 6712 6825 6659 6767 6577 6595 6518 6630 6643 6501 6613 6619 6601 6673 6588 6352 6433 6472 6434 6309 6547 6501 6343 6427 6414 6515 6297 6494 6523 6295 6384 6348 6479 6244 6252 6256 6294 6139 6254 6334 6152 6460 6362 6312 6210 6287 6182 6267 6253 6233 6092 6282 6075 6270 6367 6375 6159 6294 6174 6270 6176 6143 6043 6135 6156 6209 6256 6117 6025 6117 6154 6164 6055 6233 5949 6020 6117 6171 6092 6069 5973 6017 6115 5999 5926 5992 5848 6080 6034 6019 6043 5810 5906 6014 5914 5977 5975 5831 5875 5800 5888 5859 5902 5887 5885 5791 5808 5829 5824 5821 5796 5879 5782 5952 5877 5884 5935 5786 5896 5903 5797 5881 6093 6190 6160 6218 6287 6258 5995 6016 6082 5888 6076 6066 6388 6401 6299 6261 6138 5901 5840 5896 5872 5777 5729 5796 5780 5774 5663 5726 5907 5561 5751 5669 5682 5755 5706 5835 5729 5713 5568 5721 5768 5799 5908 5789 5734 5789 5748 5901 5778 5732 5599 5869 5782 5728 5700 5886 5737 5774 5643 6040 5830 5968 5867 5731 5766 5821 5905 5719 5860 5683 5878 5757 5855 5779 5825 5806 5787 5824 5781 5851 5849 5923 5824 5867 5885 5795 5852 5906 5968 5895 5865 5975 5925 5878 6016 6021 6002 5705 5897 5976 5855 5853 6045 6093 5937 6049 6047 6014 6180 6047 6230 6241 6403 6459 6651 6662 6728 6651 6801 6931 7314 7512 7876 8309 8550 8186 7221 6803 6648 6198 5936 5852 5962 6070 6059 5863 5992 5880 6010 5896 5944 6035 5810 5998 5858 5937 5819 5974 5943 5772 5949 5888 5776 5781 5895 5887 5741 5844 5777 5877 5951 5815 5758 5787 5841 5847 5772 5748 5740 5765 5610 5656 5880 5657 5715 5804 5673 5723 5746 5814 5607 5659 5659 5753 5761 5746 5573 5566 5644 5631 5673 5620 5590 5772 5671 5598 5578 5794 5608 5546 5695 5605 5539 5536 5531 5669 5598 5675 5512 5625 5780 5582 5571 5702 5596 5662 5709 5549 5534 5657 5570 5709 5646 5592 5668 5639 5517 5668 5508 5799 5706 5678 5556 5588 5617 5662 5545 5494 5740 5627 5612 5608 5642 5736 5779 5629 5701 5624 5634 5818 5630 5522 5749 5641 5650 5495 5750 5784 5652 5618 5638 5638 5754 5697 5684 5643 5678 5640 5574 5618 5746 5628 5638 5770 5674 5581 5647 5503 5690 5580 5485 5484 5549 5547 5536 5484 5400 5680 5565 5471 5605 5436 5405 5576 5494 5452 5383 5556 5489 5477 5609 5503 5464 5490 5460 5472 5431 5375 5376 5484 5353 5379 5348 5551 5431 5356 5463 5459 5319 5376 5342 5417 5408 5337 5337 5417 5490 5525 5359 5410 5342 5320 5387 5425 5445 5339 5288 5461 5305 5426 5333 5446 5385 5387 5314 5341 5404 5347 5416 5290 5372 5273 5241 5354 5372 5340 5339 5267 5332 5321 5407 5380 5342 5362 5399 5311 5389 5353 5304 5341 5354 5354 5365 5340 5350 5436 5303 5323 5283 5392 5381 5403 5559 5627 5649 5605 5835 5817 6016 6138 6175 6258 6642 6796 7186 7439 7700 8090 8791 9707 10786 12377 13198 13850 14755 16027 17833 18662 18795 17373 15402 13116 11057 9356 7728 6700 6553 6475 6566 6924 7443 7261 7302 7159 6638 6279 6025 5686 5662 5329 5314 5248 5204 5229 5215 5267 5157 5024 5130 5244 5061 5157 5018 5165 5157 5138 4950 5043 5004 5039 5013 5206 5129 5052 5004 5075 5179 5005 5115 5048 5126 5182 5286 5145 5128 5106 5094 5245 5258 5382 5451 5532 5442 5482 5874 6041 6408 6549 6924 7448 8146 8963 9356 10145 10693 12498 14104 16455 18592 20264 20561 19393 15673 13345 11321 9276 7094 5977 5442 5372 5107 5061 5108 5041 5082 5015 5013 4836 4806 4922 4822 4856 4876 4913 5058 4915 4856 4954 4886 4703 4853 4821 4862 4764 4917 4829 4838 4801 4656 4687 4854 4739 4699 4861 4637 4754 4725 4686 4701 4761 4691 4568 4698 4728 4754 4634 4610 4722 4725 4786 4650 4657 4680 4728 4746 4636 4831 4636 4638 4772 4566 4546 4737 4679 4738 4613 4639 4652 4575 4629 4524 4627 4444 4663 4659 4593 4517 4592 4458 4578 4585 4615 4627 4537 4642 4570 4615 4519 4603 4445 4478 4551 4389 4357 4495 4451 4469 4391 4537 4584 4560 4476 4579 4426 4415 4426 4561 4524 4411 4468 4540 4577 4534 4398 4549 4347 4474 4553 4511 4476 4543 4479 4511 4481 4472 4401 4505 4450 4515 4425 4432 4405 4424 4498 4365 4473 4431 4563 4330 4473 4393 4327 4371 4388 4496 4414 4420 4367 4499 4495 4533 4480 4515 4444 4505 4456 4408 4388 4369 4454 4493 4390 4338 4415 4408 4432 4447 4495 4405 4443 4403 4423 4443 4314 4325 4463 4350 4425 4460 4371 4273 4233 4293 4342 4478 4396 4372 4452 4501 4456 4450 4389 4327 4309 4391 4384 4329 4285 4451 4322 4362 4377 4295 4367 4427 4377 4466 4524 4549 4528 4638 4645 4608 4952 5128 5602 6275 8706 12961 13994 11410 9571 11159 12650 12827 11871 10905 10017 9507 8661 7428 6803 6018 5198 4585 4497 4369 4137 4128 3956 4077 3983 4033 4145 4036 3919 3927 4002 3976 3910 3953 3879 3919 3969 3990 3960 4037 3936 3897 3934 3976 3950 3883 3927 3958 3786 3861 3877 3816 3757 3803 3818 3854 4023 3877 3868 3788 3712 3915 3736 3729 3741 3790 3708 3789 3804 3841 3769 3779 3773 3853 3652 3704 3708 3653 3730 3660 3759 3812 3690 3733 3877 3689 3749 3840 3567 3869 3712 3847 3759 3820 3994 4057 4134 4161 4081 4104 4050 3816 3844 3864 3713 3693 3615 3571 3733 3612 3679 3639 3707 3555 3598 3604 3623 3601 3548 3621 3544 3625 3591 3638 3510 3532 3543 3462 3523 3512 3518 3523 3657 3581 3465 3563 3540 3512 3472 3379 3486 3468 3491 3508 3449 3455 3532 3503 3466 3518 3349 3569 3461 3562 3524 3482 3437 3506 3569 3320 3439 3468 3404 3448 3380 3402 3443 3371 3413 3390 3310 3455 3439 3452 3425 3464 3365 3327 3440 3389 3441 3552 3340 3449 3383 3425 3408 3353 3379 3460 3378 3375 3340 3379 3409 3321 3307 3383 3410 3305 3272 3373 3316 3335 3404 3490 3265 3360 3265 3356 3350 3366 3307 3342 3405 3260 3313 3357 3434 3389 3398 3412 3371 3363 3377 3373 3295 3353 3353 3341 3294 3387 3437 3354 3373 3447 3445 3413 3433 3514 3489 3646 3817 4004 4109 4013 4045 3902 3996 3925 3675 3627 3551 3499 3458 3353 3296 3330 3319 3335 3290 3351 3415 3249 3308 3371 3319 3334 3320 3290 3358 3244 3327 3273 3264 3122 3321 3254 3382 3366 3322 3412 3304 3271 3369 3350 3412 3299 3235 3191 3396 3323 3201 3290 3292 3355 3293 3241 3349 3431 3366 3386 3468 3356 3268 3349 3329 3363 3176 3169 3156 3221 3081 3142 3193 3199 3111 3182 3154 3107 3143 3175 3080 3149 3206 3126 3158 3195 3129 3147 3097 3151 3205 3333 3274 3351 3432 3567 3892 4263 4614 4758 5153 6137 7119 7536 7098 6686 6341 6061 5760 4993 4617 4073 3810 3440 3337 3110 3029 2993 3024 2984 2963 2965 2995 3004 2931 2976 2941 2875 2863 2822 2840 2902 2860 2938 2918 2882 2829 2845 2766 2822 2859 2706 2873 2804 2965 2809 2775 2877 2767 2798 2838 2824 2797 2706 2774 2732 2723 2782 2704 2767 2773 2710 2693 2827 2712 2714 2761 2706 2703 2725 2765 2618 2714 2630 2591 2644 2746 2793 2643 2674 2559 2617 2698 2631 2667 2540 2608 2591 2553 2636 2595 2666 2539 2581 2525 2599 2628 2642 2569 2560 2565 2656 2562 2642 2543 2459 2600 2583 2564 2479 2545 2558 2506 2560 2495 2545 2424 2530 2514 2491 2561 2524 2424 2543 2439 2480 2450 2519 2443 2502 2415 2533 2530 2560 2595 2590 2449 2564 2587 2682 2841 3119 3226 3353 3365 3385 3723 4426 5031 5101 5494 5367 4993 4467 4149 3956 3793 3629 3217 2874 2592 2517 2439 2487 2353 2311 2359 2378 2307 2307 2306 2388 2392 2290 2350 2340 2302 2323 2346 2352 2365 2431 2578 2537 2722 2605 2655 2686 2624 2579 2587 2461 2512 2551 2517 2537 2616 2580 2582 2679 2723 2882 3147 3374 3306 3127 3097 2818 2727 2739 2723 2519 2453 2301 2185 2071 2277 2096 2143 2256 2185 2142 2246 2265 2261 2235 2397 2421 2491 2407 2525 2433 2505 2450 2326 2262 2348 2270 2159 2108 2119 1932 2152 2088 2118 1975 1976 2052 2078 2058 2010 2063 2001 2029 1957 2017 1981 1972 2083 1991 2013 1947 1999 1955 2012 1995 2015 2022 2093 1984 1936 2084 2078 2061 2030 2093 2002 1974 1985 1971 1931 2035 1954 1911 2079 1967 2011 1919 1980 2019 2035 1996 2043 1987 1843 1966 2024 1918 1860 1948 1849 1973 1874 1888 1881 2009 1885 1874 1849 1925 1909 1931 1862 1830 1851 1834 1797 1886 1936 1879 1952 1879 1923 1721 1900 1804 1820 1844 1878 1848 1804 1879 1816 1732 1791 1828 1838 1819 1767 1774 1883 1784 1851 1811 1793 1803 1716 1748 1761 1757 1763 1837 1757 1737 1694 1806 1780 1693 1769 1792 1790 1790 1843 1833 1844 2002 2065 2166 2293 2216 2260 2335 2269 2193 2185 2077 1950 1979 1925 1887 1824 1686 1673 1757 1778 1750 1787 1814 1885 2138 2667 2996 2786 2530 2337 2277 2367 2432 2461 2309 2174 2202 2278 2347 2161 2101 2026 1935 2078 1972 1906 1816 1745 1730 1704 1677 1645 1638 1609 1663 1713 1618 1669 1567 1695 1611 1605 1598 1595 1639 1626 1531 1603 1609 1571 1651 1548 1540 1634 1559 1579 1566 1549 1590 1571 1549 1579 1654 1557 1551 1569 1668 1569 1620 1569 1585 1548 1560 1614 1621 1582 1593 1543 1491 1584 1587 1641 1515 1578 1557 1525 1548 1602 1574 1535 1527 1531 1503 1561 1550 1489 1528 1533 1434 1481 1520 1585 1541 1583 1573 1570 1526 1539 1453 1583 1487 1537 1510 1487 1508 1518 1510 1458 1521 1531 1473 1441 1443 1511 1530 1502 1560 1450 1504 1476 1491 1443 1450 1465 1463 1410 1507 1579 1405 1460 1456 1432 1416 1577 1403 1359 1470 1475 1533 1424 1457 1498 1503 1434 1497 1454 1476 1430 1404 1467 1388 1464 1494 1442 1376 1482 1396 1455 1383 1384 1382 1429 1361 1453 1458 1376 1447 1383 1367 1405 1372 1417 1349 1408 1428 1424 1445 1354 1495 1375 1353 1445 1424 1412 1428 1486 1392 1418 1446 1382 1332 1407 1331 1382 1419 1384 1354 1419 1370 1364 1345 1374 1441 1468 1313 1317 1439 1327 1405 1391 1339 1314 1385 1416 1317 1364 1397 1348 1403 1363 1351 1436 1415 1498 1573 1592 1815 1957 2015 2019 2203 2078 2037 1947 1861 1822 1851 1752 1615 1690 1546 1440 1481 1408 1388 1376 1305 1410 1442 1385 1469 1453 1449 1543 1522 1535 1463 1411 1421 1390 1420 1464 1428 1384 1372 1318 1355 1327 1349 1249 1370 1369 1348 1310 1382 1355 1356 1332 1346 1271 1339 1369 1356 1300 1227 1336 1289 1322 1314 1295 1327 1356 1262 1274 1321 1325 1328 1247 1248 1333 1328 1299 1301 1307 1294 1302 1310 1273 1348 1270 1296 1218 1268 1251 1258 1290 1316 1296 1228 1293 1285 1310 1237 1303 1213 1277 1333 1231 1317 1306 1269 1232 1229 1250 1228 1227 1281 1267 1290 1266 1185 1239 1270 1206 1271 1281 1303 1219 1229 1269 1231 1282 1259 1249 1248 1298 1231 1243 1203 1267 1308 1268 1235 1291 1247 1216 1281 1250 1247 1316 1284 1342 1336 1367 1362 1362 1406 1419 1379 1323 1370 1347 1311 1359 1309 1319 1355 1203 1268 1268 1264 1235 1239 1257 1230 1190 1250 1240 1273 1219 1255 1223 1275 1323 1312 1378 1538 1650 1667 1745 1828 1855 1733 1640 1610 1615 1632 1534 1522 1526 1490 1318 1302 1270 1236 1211 1188 1213 1159 1206 1178 1179 1247 1209 1180 1181 1247 1218 1302 1191 1197 1219 1272 1190 1206 1195 1192 1278 1208 1247 1208 1270 1215 1256 1254 1277 1250 1266 1253 1284 1215 1178 1218 1165 1178 1189 1188 1195 1206 1255 1222 1205 1132 1207 1205 1162 1150 1210 1170 1165 1151 1150 1134 1203 1146 1155 1217 1180 1206 1183 1126 1180 1191 1133 1165 1189 1151 1154 1136 1138 1166 1164 1198 1176 1129 1152 1153 1204 1130 1126 1151 1092 1225 1171 1139 1166 1180 1135 1221 1109 1111 1123 1153 1180 1122 1137 1098 1127 1201 1168 1088 1114 1125 1074 1142 1174 1176 1111 1174 1117 1092 1106 1173 1120 1198 1241 1230 1251 1170 1178 1297 1338 1396 1512 1549 1576 1604 1548 1399 1430 1378 1407 1404 1372 1349 1308 1239 1250 1208 1210 1176 1169 1148 1137 1182 1231 1206 1237 1179 1203 1158 1224 1146 1190 1233 1128 1124 1161 1130 1117 1152 1135 1119 1086 1104 1087 1169 1076 1136 1087 1107 1098 1081 1097 1112 1125 1120 1072 1091 1125 1110 1154 1207 1116</counts>
			</dataPoints>
		</scan>
	</xrdMeasurement>
</xrdMeasurements>
